Easting [Zone 4, m], Northing [Zone 4, m], Latitude [DecDeg], Longitude [DecDeg], SnowDepth [cm]
  593453.0  7920005.8 71.363870452712 -156.379048462698       44.1
  593453.6  7920006.6 71.363877494775 -156.379031113490       42.7
  593454.2  7920007.4 71.363884536836 -156.379013764270       41.4
  593454.8  7920008.2 71.363891578896 -156.378996415036       40.1
  593455.3  7920009.0 71.363898620953 -156.378979065791       38.9
  593455.9  7920009.8 71.363905663010 -156.378961716532       37.7
  593456.5  7920010.6 71.363912705064 -156.378944367261       36.7
  593457.1  7920011.5 71.363919747117 -156.378927017977       35.7
  593457.7  7920012.3 71.363926789169 -156.378909668680       34.9
  593458.3  7920013.1 71.363933831218 -156.378892319371       34.2
  593458.8  7920013.9 71.363940873267 -156.378874970049       33.8
  593459.4  7920014.7 71.363947915313 -156.378857620715       33.7
  593460.0  7920015.5 71.363954957358 -156.378840271367       33.7
  593460.6  7920016.3 71.363961999401 -156.378822922008       33.9
  593461.2  7920017.1 71.363969041443 -156.378805572635       33.9
  593461.8  7920017.9 71.363976083483 -156.378788223250       33.9
  593462.3  7920018.8 71.363983125522 -156.378770873852       33.6
  593462.9  7920019.6 71.363990167559 -156.378753524442       33.2
  593463.5  7920020.4 71.363997209594 -156.378736175019       32.6
  593464.1  7920021.2 71.364004251627 -156.378718825583       31.9
  593464.7  7920022.0 71.364011293659 -156.378701476134       31.0
  593465.3  7920022.8 71.364018335690 -156.378684126673       30.1
  593465.9  7920023.6 71.364025377719 -156.378666777200       29.2
  593466.4  7920024.4 71.364032419746 -156.378649427713       28.3
  593467.0  7920025.3 71.364039461771 -156.378632078214       27.6
  593467.6  7920026.1 71.364046503795 -156.378614728703       27.0
  593468.2  7920026.9 71.364053545817 -156.378597379178       26.6
  593468.8  7920027.7 71.364060587838 -156.378580029641       26.3
  593469.4  7920028.5 71.364067629857 -156.378562680092       26.3
  593469.9  7920029.3 71.364074671875 -156.378545330529       26.5
  593470.5  7920030.1 71.364081713891 -156.378527980954       26.9
  593471.1  7920030.9 71.364088755905 -156.378510631367       27.4
  593471.7  7920031.7 71.364095797917 -156.378493281766       27.9
  593472.3  7920032.6 71.364102839928 -156.378475932154       28.5
  593472.9  7920033.4 71.364109881938 -156.378458582528       28.9
  593473.4  7920034.2 71.364116923945 -156.378441232890       29.3
  593474.0  7920035.0 71.364123965952 -156.378423883239       29.6
  593474.6  7920035.8 71.364131007956 -156.378406533575       29.7
  593475.2  7920036.6 71.364138049959 -156.378389183899       29.6
  593475.8  7920037.4 71.364145091960 -156.378371834210       29.3
  593476.4  7920038.2 71.364152133960 -156.378354484509       28.8
  593477.0  7920039.0 71.364159175958 -156.378337134794       28.2
  593477.5  7920039.9 71.364166217954 -156.378319785068       27.5
  593478.1  7920040.7 71.364173259949 -156.378302435328       26.7
  593478.7  7920041.5 71.364180301942 -156.378285085576       25.8
  593479.3  7920042.3 71.364187343934 -156.378267735811       24.9
  593479.9  7920043.1 71.364194385924 -156.378250386034       24.0
  593480.5  7920043.9 71.364201427912 -156.378233036244       23.2
  593481.0  7920044.7 71.364208469899 -156.378215686441       22.3
  593481.6  7920045.5 71.364215511884 -156.378198336626       21.6
  593482.2  7920046.4 71.364222553868 -156.378180986797       20.8
  593482.8  7920047.2 71.364229595850 -156.378163636957       20.1
  593483.4  7920048.0 71.364236637830 -156.378146287103       19.4
  593484.0  7920048.8 71.364243679808 -156.378128937237       18.8
  593484.5  7920049.6 71.364250721785 -156.378111587359       18.2
  593485.1  7920050.4 71.364257763761 -156.378094237467       17.8
  593485.7  7920051.2 71.364264805735 -156.378076887563       17.3
  593486.3  7920052.0 71.364271847707 -156.378059537647       17.0
  593486.9  7920052.8 71.364278889677 -156.378042187717       16.7
  593487.5  7920053.7 71.364285931646 -156.378024837775       16.5
  593488.1  7920054.5 71.364292973614 -156.378007487821       16.4
  593488.6  7920055.3 71.364300015579 -156.377990137853       16.3
  593489.2  7920056.1 71.364307057544 -156.377972787873       16.2
  593489.8  7920056.9 71.364314099506 -156.377955437881       16.1
  593490.4  7920057.7 71.364321141467 -156.377938087876       16.0
  593491.0  7920058.5 71.364328183426 -156.377920737858       15.8
  593491.6  7920059.3 71.364335225384 -156.377903387827       15.5
  593492.1  7920060.1 71.364342267340 -156.377886037784       15.2
  593492.7  7920061.0 71.364349309294 -156.377868687728       14.8
  593493.3  7920061.8 71.364356351247 -156.377851337660       14.3
  593493.9  7920062.6 71.364363393198 -156.377833987578       13.8
  593494.5  7920063.4 71.364370435148 -156.377816637485       13.3
  593495.1  7920064.2 71.364377477095 -156.377799287378       12.9
  593495.6  7920065.0 71.364384519042 -156.377781937259       12.5
  593496.2  7920065.8 71.364391560986 -156.377764587127       12.2
  593496.8  7920066.6 71.364398602930 -156.377747236983       11.9
  593497.4  7920067.5 71.364405644871 -156.377729886825       11.9
  593498.0  7920068.3 71.364412686811 -156.377712536656       12.0
  593498.6  7920069.1 71.364419728749 -156.377695186473       12.4
  593499.2  7920069.9 71.364426770686 -156.377677836278       13.0
  593499.7  7920070.7 71.364433812621 -156.377660486070       13.9
  593500.3  7920071.5 71.364440854554 -156.377643135850       14.9
  593500.9  7920072.3 71.364447896486 -156.377625785617       16.0
  593501.5  7920073.1 71.364454938416 -156.377608435371       17.2
  593502.1  7920073.9 71.364461980344 -156.377591085113       18.4
  593502.7  7920074.8 71.364469022271 -156.377573734842       19.5
  593503.2  7920075.6 71.364476064197 -156.377556384558       20.4
  593503.8  7920076.4 71.364483106120 -156.377539034262       21.1
  593504.4  7920077.2 71.364490148042 -156.377521683953       21.6
  593505.0  7920078.0 71.364497189963 -156.377504333631       21.8
  593505.6  7920078.8 71.364504231882 -156.377486983297       21.6
  593506.2  7920079.6 71.364511273799 -156.377469632950       21.2
  593506.7  7920080.4 71.364518315714 -156.377452282590       20.4
  593507.3  7920081.3 71.364525357628 -156.377434932218       19.4
  593507.9  7920082.1 71.364532399541 -156.377417581833       18.3
  593508.5  7920082.9 71.364539441451 -156.377400231436       17.1
  593509.1  7920083.7 71.364546483361 -156.377382881025       15.8
  593509.7  7920084.5 71.364553525268 -156.377365530603       14.6
  593510.3  7920085.3 71.364560567174 -156.377348180167       13.3
  593510.8  7920086.1 71.364567609078 -156.377330829719       12.1
  593511.4  7920086.9 71.364574650981 -156.377313479258       11.0
  593512.0  7920087.7 71.364581692882 -156.377296128784        9.9
  593512.6  7920088.6 71.364588734781 -156.377278778298        8.9
  593513.2  7920089.4 71.364595776679 -156.377261427799        7.9
  593513.8  7920090.2 71.364602818575 -156.377244077288        7.1
  593514.3  7920091.0 71.364609860470 -156.377226726764        6.5
  593514.9  7920091.8 71.364616902363 -156.377209376227        6.0
  593515.5  7920092.6 71.364623944254 -156.377192025678        5.9
  593516.1  7920093.4 71.364630986144 -156.377174675115        6.0
  593516.7  7920094.2 71.364638028032 -156.377157324541        6.4
  593517.3  7920095.0 71.364645069918 -156.377139973953        7.0
  593517.8  7920095.9 71.364652111803 -156.377122623353        7.8
  593518.4  7920096.7 71.364659153686 -156.377105272740        8.8
  593519.0  7920097.5 71.364666195568 -156.377087922115        9.8
  593519.6  7920098.3 71.364673237448 -156.377070571477       10.9
  593520.2  7920099.1 71.364680279327 -156.377053220826       11.8
  593520.8  7920099.9 71.364687321203 -156.377035870163       12.6
  593521.4  7920100.7 71.364694363078 -156.377018519487       13.0
  593521.9  7920101.5 71.364701404952 -156.377001168798       13.1
  593522.5  7920102.4 71.364708446824 -156.376983818097       12.8
  593523.1  7920103.2 71.364715488694 -156.376966467383       12.2
  593523.7  7920104.0 71.364722530563 -156.376949116656       11.4
  593524.3  7920104.8 71.364729572430 -156.376931765917       10.5
  593524.9  7920105.6 71.364736614295 -156.376914415165        9.6
  593525.4  7920106.4 71.364743656159 -156.376897064401        8.8
  593526.0  7920107.2 71.364750698022 -156.376879713623        8.0
  593526.6  7920108.0 71.364757739882 -156.376862362833        7.3
  593527.2  7920108.8 71.364764781741 -156.376845012031        6.7
  593527.8  7920109.7 71.364771823598 -156.376827661216        6.2
  593528.4  7920110.5 71.364778865454 -156.376810310388        5.8
  593528.9  7920111.3 71.364785907308 -156.376792959547        5.6
  593529.5  7920112.1 71.364792949161 -156.376775608694        5.5
  593530.1  7920112.9 71.364799991012 -156.376758257828        5.5
  593530.7  7920113.7 71.364807032861 -156.376740906950        5.6
  593531.3  7920114.5 71.364814074709 -156.376723556058        5.7
  593531.9  7920115.3 71.364821116555 -156.376706205155        6.0
  593532.5  7920116.1 71.364828158399 -156.376688854238        6.3
  593533.0  7920117.0 71.364835200242 -156.376671503309        6.9
  593533.6  7920117.8 71.364842242083 -156.376654152367        7.6
  593534.2  7920118.6 71.364849283923 -156.376636801413        8.6
  593534.8  7920119.4 71.364856325761 -156.376619450446        9.8
  593535.4  7920120.2 71.364863367597 -156.376602099466       11.1
  593536.0  7920121.0 71.364870409432 -156.376584748473       12.5
  593536.5  7920121.8 71.364877451265 -156.376567397468       13.8
  593537.1  7920122.6 71.364884493096 -156.376550046451       14.8
  593537.7  7920123.5 71.364891534926 -156.376532695420       15.6
  593538.3  7920124.3 71.364898576755 -156.376515344377       16.1
  593538.9  7920125.1 71.364905618581 -156.376497993321       16.2
  593539.5  7920125.9 71.364912660406 -156.376480642253       16.1
  593540.0  7920126.7 71.364919702230 -156.376463291172       15.7
  593540.6  7920127.5 71.364926744051 -156.376445940078       15.1
  593541.2  7920128.3 71.364933785872 -156.376428588972       14.5
  593541.8  7920129.1 71.364940827690 -156.376411237853       13.8
  593542.4  7920129.9 71.364947869507 -156.376393886721       13.2
  593543.0  7920130.8 71.364954911323 -156.376376535577       12.8
  593543.6  7920131.6 71.364961953136 -156.376359184420       12.6
  593544.1  7920132.4 71.364968994948 -156.376341833251       12.6
  593544.7  7920133.2 71.364976036759 -156.376324482068       12.8
  593545.3  7920134.0 71.364983078568 -156.376307130873       13.2
  593545.9  7920134.8 71.364990120375 -156.376289779666       13.6
  593546.5  7920135.6 71.364997162181 -156.376272428446       14.1
  593547.1  7920136.4 71.365004203984 -156.376255077213       14.6
  593547.6  7920137.3 71.365011245787 -156.376237725967       15.0
  593548.2  7920138.1 71.365018287588 -156.376220374709       15.3
  593548.8  7920138.9 71.365025329387 -156.376203023438       15.6
  593549.4  7920139.7 71.365032371184 -156.376185672154       15.9
  593550.0  7920140.5 71.365039412980 -156.376168320858       16.5
  593550.6  7920141.3 71.365046454775 -156.376150969549       17.2
  593551.1  7920142.1 71.365053496567 -156.376133618228       18.3
  593551.7  7920142.9 71.365060538358 -156.376116266894       19.7
  593552.3  7920143.7 71.365067580148 -156.376098915547       21.3
  593552.9  7920144.6 71.365074621936 -156.376081564188       23.1
  593553.5  7920145.4 71.365081663722 -156.376064212815       24.9
  593554.1  7920146.2 71.365088705506 -156.376046861431       26.6
  593554.7  7920147.0 71.365095747289 -156.376029510033       28.0
  593555.2  7920147.8 71.365102789071 -156.376012158623       29.1
  593555.8  7920148.6 71.365109830851 -156.375994807200       29.7
  593556.4  7920149.4 71.365116872629 -156.375977455765       29.8
  593557.0  7920150.2 71.365123914405 -156.375960104317       29.3
  593557.6  7920151.0 71.365130956180 -156.375942752856       28.2
  593558.2  7920151.9 71.365137997953 -156.375925401383       26.7
  593558.7  7920152.7 71.365145039725 -156.375908049897       24.8
  593559.3  7920153.5 71.365152081495 -156.375890698398       22.7
  593559.9  7920154.3 71.365159123264 -156.375873346887       20.6
  593560.5  7920155.1 71.365166165030 -156.375855995363       18.7
  593561.1  7920155.9 71.365173206796 -156.375838643826       17.0
  593561.7  7920156.7 71.365180248559 -156.375821292277       15.6
  593562.2  7920157.5 71.365187290321 -156.375803940715       14.6
  593562.8  7920158.4 71.365194332081 -156.375786589140       13.8
  593563.4  7920159.2 71.365201373840 -156.375769237553       13.3
  593564.0  7920160.0 71.365208415597 -156.375751885953       13.1
  593564.6  7920160.8 71.365215457353 -156.375734534340       13.0
  593565.2  7920161.6 71.365222499107 -156.375717182715       13.1
  593565.8  7920162.4 71.365229540859 -156.375699831077       13.3
  593566.3  7920163.2 71.365236582610 -156.375682479427       13.5
  593566.9  7920164.0 71.365243624359 -156.375665127763       13.8
  593567.5  7920164.8 71.365250666106 -156.375647776087       14.2
  593568.1  7920165.7 71.365257707852 -156.375630424399       14.7
  593568.7  7920166.5 71.365264749596 -156.375613072698       15.3
  593569.3  7920167.3 71.365271791338 -156.375595720984       16.1
  593569.8  7920168.1 71.365278833079 -156.375578369257       17.0
  593570.4  7920168.9 71.365285874819 -156.375561017518       18.1
  593571.0  7920169.7 71.365292916556 -156.375543665766       19.3
  593571.6  7920170.5 71.365299958293 -156.375526314002       20.8
  593572.2  7920171.3 71.365307000027 -156.375508962225       22.4
  593572.8  7920172.1 71.365314041760 -156.375491610435       24.2
  593573.3  7920173.0 71.365321083491 -156.375474258632       26.0
  593573.9  7920173.8 71.365328125221 -156.375456906817       27.9
  593574.5  7920174.6 71.365335166949 -156.375439554990       29.7
  593575.1  7920175.4 71.365342208675 -156.375422203149       31.5
  593575.7  7920176.2 71.365349250400 -156.375404851296       33.1
  593576.3  7920177.0 71.365356292123 -156.375387499430       34.5
  593576.9  7920177.8 71.365363333844 -156.375370147552       35.6
  593577.4  7920178.6 71.365370375564 -156.375352795661       36.3
  593578.0  7920179.5 71.365377417283 -156.375335443757       36.3
  593578.6  7920180.3 71.365384458999 -156.375318091841       35.7
  593579.2  7920181.1 71.365391500714 -156.375300739912       34.4
  593579.8  7920181.9 71.365398542428 -156.375283387970       32.4
  593580.4  7920182.7 71.365405584140 -156.375266036016       29.8
  593580.9  7920183.5 71.365412625850 -156.375248684049       26.8
  593581.5  7920184.3 71.365419667559 -156.375231332069       23.5
  593582.1  7920185.1 71.365426709266 -156.375213980077       20.1
  593582.7  7920185.9 71.365433750971 -156.375196628072       16.9
  593583.3  7920186.8 71.365440792675 -156.375179276054       14.0
  593583.9  7920187.6 71.365447834377 -156.375161924024       11.7
  593584.4  7920188.4 71.365454876077 -156.375144571981       10.1
  593585.0  7920189.2 71.365461917776 -156.375127219925        9.3
  593585.6  7920190.0 71.365468959473 -156.375109867857        9.5
  593586.2  7920190.8 71.365476001169 -156.375092515776       10.4
  593586.8  7920191.6 71.365483042863 -156.375075163682       12.1
  593587.4  7920192.4 71.365490084556 -156.375057811576       14.1
  593588.0  7920193.3 71.365497126246 -156.375040459457       16.2
  593588.5  7920194.1 71.365504167936 -156.375023107326       18.2
  593589.1  7920194.9 71.365511209623 -156.375005755182       19.8
  593589.7  7920195.7 71.365518251309 -156.374988403025       21.0
  593590.3  7920196.5 71.365525292993 -156.374971050855       21.6
  593590.9  7920197.3 71.365532334676 -156.374953698673       21.7
  593591.5  7920198.1 71.365539376357 -156.374936346478       21.4
  593592.0  7920198.9 71.365546418037 -156.374918994271       20.5
  593592.6  7920199.7 71.365553459715 -156.374901642051       19.3
  593593.2  7920200.6 71.365560501391 -156.374884289818       17.9
  593593.8  7920201.4 71.365567543065 -156.374866937572       16.3
  593594.4  7920202.2 71.365574584738 -156.374849585314       14.8
  593595.0  7920203.0 71.365581626410 -156.374832233043       13.3
  593595.6  7920203.8 71.365588668080 -156.374814880760       12.1
  593596.1  7920204.6 71.365595709748 -156.374797528464       11.0
  593596.7  7920205.4 71.365602751414 -156.374780176155       10.1
  593597.3  7920206.2 71.365609793079 -156.374762823834        9.3
  593597.9  7920207.0 71.365616834743 -156.374745471499        8.7
  593598.5  7920207.9 71.365623876404 -156.374728119153        8.1
  593599.1  7920208.7 71.365630918064 -156.374710766793        7.5
  593599.6  7920209.5 71.365637959723 -156.374693414421        7.1
  593600.2  7920210.3 71.365645001380 -156.374676062037        6.7
  593600.8  7920211.1 71.365652043035 -156.374658709639        6.6
  593601.4  7920211.9 71.365659084688 -156.374641357229        6.6
  593602.0  7920212.7 71.365666126340 -156.374624004807        6.8
  593602.6  7920213.5 71.365673167991 -156.374606652371        7.1
  593603.1  7920214.4 71.365680209640 -156.374589299923        7.6
  593603.7  7920215.2 71.365687251287 -156.374571947463        8.3
  593604.3  7920216.0 71.365694292932 -156.374554594989        9.0
  593604.9  7920216.8 71.365701334576 -156.374537242503        9.8
  593605.5  7920217.6 71.365708376218 -156.374519890005       10.5
  593606.1  7920218.4 71.365715417859 -156.374502537493       11.3
  593606.7  7920219.2 71.365722459498 -156.374485184969       11.9
  593607.2  7920220.0 71.365729501136 -156.374467832433       12.4
  593607.8  7920220.8 71.365736542771 -156.374450479884       12.9
  593608.4  7920221.7 71.365743584406 -156.374433127322       13.2
  593609.0  7920222.5 71.365750626038 -156.374415774747       13.3
  593609.6  7920223.3 71.365757667669 -156.374398422160       13.4
  593610.2  7920224.1 71.365764709298 -156.374381069560       13.5
  593610.7  7920224.9 71.365771750926 -156.374363716947       13.5
  593611.3  7920225.7 71.365778792552 -156.374346364322       13.6
  593611.9  7920226.5 71.365785834177 -156.374329011684       13.7
  593612.5  7920227.3 71.365792875800 -156.374311659034       13.9
  593613.1  7920228.1 71.365799917421 -156.374294306371       14.1
  593613.7  7920229.0 71.365806959041 -156.374276953695       14.4
  593614.2  7920229.8 71.365814000659 -156.374259601006       14.7
  593614.8  7920230.6 71.365821042275 -156.374242248305       15.1
  593615.4  7920231.4 71.365828083890 -156.374224895591       15.6
  593616.0  7920232.2 71.365835125503 -156.374207542865       16.1
  593616.6  7920233.0 71.365842167115 -156.374190190126       16.7
  593617.2  7920233.8 71.365849208724 -156.374172837374       17.3
  593617.8  7920234.6 71.365856250333 -156.374155484610       18.0
  593618.3  7920235.5 71.365863291939 -156.374138131832       18.8
  593618.9  7920236.3 71.365870333545 -156.374120779043       19.6
  593619.5  7920237.1 71.365877375148 -156.374103426240       20.5
  593620.1  7920237.9 71.365884416750 -156.374086073425       21.5
  593620.7  7920238.7 71.365891458350 -156.374068720597       22.6
  593621.3  7920239.5 71.365898499949 -156.374051367757       23.7
  593621.8  7920240.3 71.365905541546 -156.374034014904       24.9
  593622.4  7920241.1 71.365912583141 -156.374016662038       26.0
  593623.0  7920241.9 71.365919624735 -156.373999309160       27.2
  593623.6  7920242.8 71.365926666327 -156.373981956269       28.3
  593624.2  7920243.6 71.365933707918 -156.373964603365       29.3
  593624.8  7920244.4 71.365940749506 -156.373947250449       30.2
  593625.3  7920245.2 71.365947791094 -156.373929897520       31.0
  593625.9  7920246.0 71.365954832679 -156.373912544578       31.6
